# xPDFsuite Configuration #
[PDF]
wavelength = 0.1
dataformat = Qnm
inputfile = MAPbI3_darkSub_69.chi
backgroundfile = dSubAcq_kaptonbkgs_9mins.chi
mode = xray
bgscale = 0.1433835
composition = CHNPbI3
outputtype = gr
qmaxinst = 25.0
qmin = 0.1
qmax = 25.0
rmax = 100.0
rmin = 0.0
rstep = 0.01
rpoly = 0.9

[Misc]
inputdir = /home/soham/jazz/beamTime/XPD_3_5_16/MAPbI3/MAPbI3_darkSub_heatingFullRange
savedir = /home/soham/jazz/beamTime/XPD_3_5_16/MAPbI3/Reduced/gr/qmax25
backgroundfilefull = /home/soham/jazz/beamTime/XPD_3_5_16/MAPbI3/bkgd/dSubAcq_kaptonbkgs_9mins.chi

#### start data
#S 1
#L r($\AA$)  G($\AA^{-2}$)
0 0
0.01 -0.000201432
0.02 -0.000389742
0.03 -0.000553645
0.04 -0.000683327
0.05 -0.00077102
0.06 -0.000811453
0.07 -0.000802161
0.08 -0.000743622
0.09 -0.000638915
0.1 -0.000491911
0.11 -0.000315248
0.12 -0.000119396
0.13 8.42036e-05
0.14 0.000283848
0.15 0.000468288
0.16 0.000627393
0.17 0.000752723
0.18 0.000837264
0.19 0.000874206
0.2 0.000865552
0.21 0.000812181
0.22 0.00071641
0.23 0.00058121
0.24 0.000409236
0.25 0.000201729
0.26 -4.26384e-05
0.27 -0.0003301
0.28 -0.000674328
0.29 -0.00108888
0.3 -0.00159609
0.31 -0.00222397
0.32 -0.00300549
0.33 -0.00397724
0.34 -0.00517752
0.35 -0.0066438
0.36 -0.0084198
0.37 -0.0105429
0.38 -0.0130062
0.39 -0.0158046
0.4 -0.0189129
0.41 -0.0222822
0.42 -0.0258368
0.43 -0.0294724
0.44 -0.0330551
0.45 -0.0364057
0.46 -0.0393021
0.47 -0.0415379
0.48 -0.0428768
0.49 -0.0430722
0.5 -0.0418757
0.51 -0.0390468
0.52 -0.0343625
0.53 -0.0276287
0.54 -0.0185832
0.55 -0.00711922
0.56 0.00669373
0.57 0.0228175
0.58 0.0411402
0.59 0.0614737
0.6 0.0835534
0.61 0.107042
0.62 0.131535
0.63 0.156571
0.64 0.181571
0.65 0.205974
0.66 0.22923
0.67 0.250795
0.68 0.270155
0.69 0.286844
0.7 0.300456
0.71 0.310667
0.72 0.317012
0.73 0.319482
0.74 0.318188
0.75 0.313245
0.76 0.304874
0.77 0.29339
0.78 0.279197
0.79 0.262767
0.8 0.24462
0.81 0.225265
0.82 0.205368
0.83 0.185485
0.84 0.166103
0.85 0.147644
0.86 0.13045
0.87 0.114771
0.88 0.100752
0.89 0.0884344
0.9 0.0778705
0.91 0.0687675
0.92 0.06084
0.93 0.0537607
0.94 0.0471573
0.95 0.0406352
0.96 0.0338006
0.97 0.0262837
0.98 0.0177612
0.99 0.00785249
1 -0.00351649
1.01 -0.0163955
1.02 -0.0307407
1.03 -0.046407
1.04 -0.063154
1.05 -0.0806578
1.06 -0.0985262
1.07 -0.116319
1.08 -0.133483
1.09 -0.149573
1.1 -0.164166
1.11 -0.176899
1.12 -0.187487
1.13 -0.195748
1.14 -0.201609
1.15 -0.205121
1.16 -0.206438
1.17 -0.205752
1.18 -0.203658
1.19 -0.200658
1.2 -0.197314
1.21 -0.194223
1.22 -0.191984
1.23 -0.191167
1.24 -0.192287
1.25 -0.195817
1.26 -0.202247
1.27 -0.211552
1.28 -0.22374
1.29 -0.238668
1.3 -0.256048
1.31 -0.275453
1.32 -0.296336
1.33 -0.318056
1.34 -0.339885
1.35 -0.360973
1.36 -0.38058
1.37 -0.398015
1.38 -0.412668
1.39 -0.424038
1.4 -0.43176
1.41 -0.435624
1.42 -0.435587
1.43 -0.431664
1.44 -0.424111
1.45 -0.413632
1.46 -0.400836
1.47 -0.386432
1.48 -0.371196
1.49 -0.355933
1.5 -0.341439
1.51 -0.328467
1.52 -0.317801
1.53 -0.310077
1.54 -0.305562
1.55 -0.304481
1.56 -0.306884
1.57 -0.312654
1.58 -0.32151
1.59 -0.333025
1.6 -0.34665
1.61 -0.361774
1.62 -0.377595
1.63 -0.393327
1.64 -0.408265
1.65 -0.421766
1.66 -0.433278
1.67 -0.442366
1.68 -0.448739
1.69 -0.452256
1.7 -0.45279
1.71 -0.450615
1.72 -0.446184
1.73 -0.439971
1.74 -0.432544
1.75 -0.424533
1.76 -0.416597
1.77 -0.409389
1.78 -0.403519
1.79 -0.399672
1.8 -0.398242
1.81 -0.399452
1.82 -0.403433
1.83 -0.410166
1.84 -0.419486
1.85 -0.431086
1.86 -0.444538
1.87 -0.459317
1.88 -0.474832
1.89 -0.490346
1.9 -0.505213
1.91 -0.518835
1.92 -0.530686
1.93 -0.540333
1.94 -0.547462
1.95 -0.551893
1.96 -0.553588
1.97 -0.552459
1.98 -0.548965
1.99 -0.543522
2 -0.536611
2.01 -0.528782
2.02 -0.520623
2.03 -0.512729
2.04 -0.505671
2.05 -0.499967
2.06 -0.496239
2.07 -0.494682
2.08 -0.495475
2.09 -0.498677
2.1 -0.504217
2.11 -0.511902
2.12 -0.521429
2.13 -0.532407
2.14 -0.544376
2.15 -0.55683
2.16 -0.569178
2.17 -0.580935
2.18 -0.591665
2.19 -0.601008
2.2 -0.608697
2.21 -0.614569
2.22 -0.618575
2.23 -0.620761
2.24 -0.62121
2.25 -0.620353
2.26 -0.618545
2.27 -0.616193
2.28 -0.613728
2.29 -0.611577
2.3 -0.610141
2.31 -0.609768
2.32 -0.610762
2.33 -0.6134
2.34 -0.617644
2.35 -0.623449
2.36 -0.630668
2.37 -0.639059
2.38 -0.648302
2.39 -0.658014
2.4 -0.667774
2.41 -0.677126
2.42 -0.685573
2.43 -0.692773
2.44 -0.698418
2.45 -0.702287
2.46 -0.704256
2.47 -0.704308
2.48 -0.702535
2.49 -0.699136
2.5 -0.694374
2.51 -0.688657
2.52 -0.682507
2.53 -0.676408
2.54 -0.670851
2.55 -0.666309
2.56 -0.663213
2.57 -0.661928
2.58 -0.662734
2.59 -0.66591
2.6 -0.671539
2.61 -0.67944
2.62 -0.689432
2.63 -0.701234
2.64 -0.714473
2.65 -0.728705
2.66 -0.74343
2.67 -0.758117
2.68 -0.772166
2.69 -0.784983
2.7 -0.796098
2.71 -0.805055
2.72 -0.811453
2.73 -0.814951
2.74 -0.815264
2.75 -0.812166
2.76 -0.805472
2.77 -0.794811
2.78 -0.780126
2.79 -0.761415
2.8 -0.73853
2.81 -0.711292
2.82 -0.679479
2.83 -0.642817
2.84 -0.60098
2.85 -0.553591
2.86 -0.499808
2.87 -0.439368
2.88 -0.371972
2.89 -0.297183
2.9 -0.214613
2.91 -0.12395
2.92 -0.0249905
2.93 0.0823324
2.94 0.197926
2.95 0.322063
2.96 0.453754
2.97 0.592121
2.98 0.736223
2.99 0.884923
3 1.0369
3.01 1.19067
3.02 1.34462
3.03 1.49707
3.04 1.64584
3.05 1.78927
3.06 1.9257
3.07 2.05351
3.08 2.17123
3.09 2.27755
3.1 2.37137
3.11 2.45179
3.12 2.51815
3.13 2.56875
3.14 2.60467
3.15 2.62605
3.16 2.63322
3.17 2.62665
3.18 2.60701
3.19 2.57508
3.2 2.53173
3.21 2.47784
3.22 2.41371
3.23 2.3412
3.24 2.26127
3.25 2.17481
3.26 2.08271
3.27 1.98575
3.28 1.88468
3.29 1.78018
3.3 1.67288
3.31 1.56326
3.32 1.45211
3.33 1.33997
3.34 1.22737
3.35 1.11485
3.36 1.00296
3.37 0.892252
3.38 0.78329
3.39 0.676701
3.4 0.573252
3.41 0.473315
3.42 0.377395
3.43 0.285953
3.44 0.199383
3.45 0.118003
3.46 0.0420376
3.47 -0.0283861
3.48 -0.0930948
3.49 -0.152007
3.5 -0.205692
3.51 -0.254462
3.52 -0.298711
3.53 -0.338897
3.54 -0.375523
3.55 -0.409115
3.56 -0.440196
3.57 -0.469213
3.58 -0.496637
3.59 -0.522948
3.6 -0.548434
3.61 -0.57329
3.62 -0.597609
3.63 -0.62139
3.64 -0.644533
3.65 -0.66686
3.66 -0.688063
3.67 -0.707796
3.68 -0.725786
3.69 -0.741704
3.7 -0.755244
3.71 -0.766147
3.72 -0.774212
3.73 -0.779315
3.74 -0.781419
3.75 -0.780435
3.76 -0.776572
3.77 -0.770198
3.78 -0.761637
3.79 -0.751265
3.8 -0.7395
3.81 -0.726771
3.82 -0.713502
3.83 -0.700089
3.84 -0.686905
3.85 -0.67424
3.86 -0.662261
3.87 -0.651045
3.88 -0.640573
3.89 -0.63073
3.9 -0.62131
3.91 -0.612031
3.92 -0.602549
3.93 -0.592409
3.94 -0.581187
3.95 -0.568497
3.96 -0.553968
3.97 -0.537278
3.98 -0.518173
3.99 -0.496483
4 -0.472126
4.01 -0.445116
4.02 -0.415389
4.03 -0.383321
4.04 -0.349248
4.05 -0.313522
4.06 -0.276537
4.07 -0.238709
4.08 -0.200453
4.09 -0.162164
4.1 -0.124201
4.11 -0.0869355
4.12 -0.0505659
4.13 -0.0152268
4.14 0.01902
4.15 0.0521895
4.16 0.0843662
4.17 0.115693
4.18 0.146356
4.19 0.176568
4.2 0.206549
4.21 0.236541
4.22 0.266712
4.23 0.297182
4.24 0.328008
4.25 0.359172
4.26 0.390583
4.27 0.422071
4.28 0.453394
4.29 0.484175
4.3 0.51407
4.31 0.542688
4.32 0.569627
4.33 0.594496
4.34 0.616933
4.35 0.636622
4.36 0.653314
4.37 0.666785
4.38 0.676741
4.39 0.683449
4.4 0.687016
4.41 0.687631
4.42 0.685553
4.43 0.681098
4.44 0.67462
4.45 0.666495
4.46 0.657076
4.47 0.646709
4.48 0.635785
4.49 0.624551
4.5 0.613184
4.51 0.601786
4.52 0.590378
4.53 0.578903
4.54 0.56723
4.55 0.555148
4.56 0.542367
4.57 0.528636
4.58 0.513671
4.59 0.497199
4.6 0.478976
4.61 0.458806
4.62 0.436553
4.63 0.412152
4.64 0.38554
4.65 0.3568
4.66 0.326238
4.67 0.294115
4.68 0.260749
4.69 0.226503
4.7 0.191767
4.71 0.156936
4.72 0.122398
4.73 0.0885526
4.74 0.0557439
4.75 0.0241746
4.76 -0.00599335
4.77 -0.0346764
4.78 -0.0618708
4.79 -0.0876499
4.8 -0.112157
4.81 -0.135594
4.82 -0.15818
4.83 -0.180238
4.84 -0.202087
4.85 -0.224005
4.86 -0.246241
4.87 -0.269002
4.88 -0.292442
4.89 -0.316651
4.9 -0.341649
4.91 -0.367427
4.92 -0.393826
4.93 -0.420637
4.94 -0.447627
4.95 -0.47453
4.96 -0.501063
4.97 -0.526944
4.98 -0.551903
4.99 -0.575703
5 -0.598046
5.01 -0.618849
5.02 -0.638081
5.03 -0.655745
5.04 -0.671911
5.05 -0.686707
5.06 -0.700316
5.07 -0.71296
5.08 -0.72489
5.09 -0.736359
5.1 -0.747678
5.11 -0.759092
5.12 -0.770806
5.13 -0.782978
5.14 -0.795711
5.15 -0.809051
5.16 -0.822977
5.17 -0.837412
5.18 -0.852237
5.19 -0.867222
5.2 -0.882142
5.21 -0.896755
5.22 -0.910815
5.23 -0.924085
5.24 -0.936351
5.25 -0.947438
5.26 -0.957213
5.27 -0.965471
5.28 -0.97233
5.29 -0.977843
5.3 -0.98212
5.31 -0.98532
5.32 -0.987643
5.33 -0.989317
5.34 -0.990586
5.35 -0.991699
5.36 -0.992918
5.37 -0.994459
5.38 -0.996489
5.39 -0.999131
5.4 -1.00246
5.41 -1.00648
5.42 -1.01118
5.43 -1.01645
5.44 -1.02219
5.45 -1.02824
5.46 -1.03437
5.47 -1.04041
5.48 -1.04616
5.49 -1.05146
5.5 -1.05619
5.51 -1.06023
5.52 -1.06354
5.53 -1.06609
5.54 -1.0679
5.55 -1.06913
5.56 -1.0699
5.57 -1.07039
5.58 -1.07077
5.59 -1.07125
5.6 -1.07201
5.61 -1.07322
5.62 -1.07505
5.63 -1.07763
5.64 -1.08097
5.65 -1.08507
5.66 -1.08986
5.67 -1.09525
5.68 -1.10106
5.69 -1.10711
5.7 -1.11317
5.71 -1.11897
5.72 -1.12423
5.73 -1.12872
5.74 -1.13221
5.75 -1.13452
5.76 -1.13551
5.77 -1.13507
5.78 -1.13315
5.79 -1.12975
5.8 -1.12487
5.81 -1.1186
5.82 -1.11116
5.83 -1.10268
5.84 -1.09332
5.85 -1.08325
5.86 -1.07258
5.87 -1.06143
5.88 -1.04985
5.89 -1.03782
5.9 -1.02528
5.91 -1.01214
5.92 -0.998209
5.93 -0.983252
5.94 -0.96699
5.95 -0.94911
5.96 -0.929276
5.97 -0.907144
5.98 -0.882196
5.99 -0.854179
6 -0.822913
6.01 -0.788192
6.02 -0.749876
6.03 -0.707902
6.04 -0.662285
6.05 -0.613119
6.06 -0.560579
6.07 -0.504716
6.08 -0.446038
6.09 -0.384993
6.1 -0.322003
6.11 -0.257521
6.12 -0.192011
6.13 -0.125938
6.14 -0.0597584
6.15 0.00609557
6.16 0.0711345
6.17 0.135012
6.18 0.197421
6.19 0.258086
6.2 0.316769
6.21 0.373269
6.22 0.427413
6.23 0.479052
6.24 0.528053
6.25 0.574047
6.26 0.617126
6.27 0.657181
6.28 0.694087
6.29 0.727708
6.3 0.757903
6.31 0.784532
6.32 0.807454
6.33 0.82653
6.34 0.841296
6.35 0.852018
6.36 0.858653
6.37 0.861208
6.38 0.85974
6.39 0.854364
6.4 0.845259
6.41 0.832666
6.42 0.81686
6.43 0.798039
6.44 0.77688
6.45 0.753843
6.46 0.729415
6.47 0.704099
6.48 0.678396
6.49 0.652796
6.5 0.627765
6.51 0.603753
6.52 0.58125
6.53 0.560487
6.54 0.541708
6.55 0.525095
6.56 0.510765
6.57 0.498775
6.58 0.489127
6.59 0.481776
6.6 0.476692
6.61 0.47384
6.62 0.472948
6.63 0.473886
6.64 0.476534
6.65 0.480785
6.66 0.486556
6.67 0.493789
6.68 0.502454
6.69 0.512595
6.7 0.524274
6.71 0.537453
6.72 0.552186
6.73 0.568531
6.74 0.586541
6.75 0.606253
6.76 0.627684
6.77 0.650821
6.78 0.67568
6.79 0.702176
6.8 0.730092
6.81 0.759254
6.82 0.789454
6.83 0.820455
6.84 0.851997
6.85 0.883803
6.86 0.915595
6.87 0.947068
6.88 0.977932
6.89 1.00797
6.9 1.03696
6.91 1.06476
6.92 1.09123
6.93 1.11627
6.94 1.13985
6.95 1.16196
6.96 1.18252
6.97 1.20164
6.98 1.21942
6.99 1.23596
7 1.25132
7.01 1.26557
7.02 1.27878
7.03 1.29097
7.04 1.30217
7.05 1.31228
7.06 1.32131
7.07 1.3292
7.08 1.33586
7.09 1.34119
7.1 1.34508
7.11 1.34741
7.12 1.34807
7.13 1.34697
7.14 1.34389
7.15 1.33887
7.16 1.33194
7.17 1.32313
7.18 1.31247
7.19 1.30005
7.2 1.28599
7.21 1.27043
7.22 1.2535
7.23 1.2353
7.24 1.21609
7.25 1.19603
7.26 1.17528
7.27 1.15395
7.28 1.13215
7.29 1.10994
7.3 1.08738
7.31 1.06445
7.32 1.04112
7.33 1.01736
7.34 0.993105
7.35 0.968273
7.36 0.942779
7.37 0.916538
7.38 0.889473
7.39 0.861522
7.4 0.832639
7.41 0.802728
7.42 0.771888
7.43 0.740162
7.44 0.707622
7.45 0.674364
7.46 0.640504
7.47 0.606173
7.48 0.571514
7.49 0.53667
7.5 0.501793
7.51 0.467024
7.52 0.432475
7.53 0.398238
7.54 0.364382
7.55 0.33095
7.56 0.297964
7.57 0.265419
7.58 0.233302
7.59 0.201589
7.6 0.170201
7.61 0.139084
7.62 0.108189
7.63 0.0774718
7.64 0.0469027
7.65 0.0164676
7.66 -0.0138287
7.67 -0.0439558
7.68 -0.0738545
7.69 -0.103469
7.7 -0.132721
7.71 -0.16152
7.72 -0.189773
7.73 -0.217391
7.74 -0.244288
7.75 -0.270397
7.76 -0.295635
7.77 -0.319955
7.78 -0.343409
7.79 -0.366026
7.8 -0.387863
7.81 -0.409
7.82 -0.429539
7.83 -0.449595
7.84 -0.469294
7.85 -0.48876
7.86 -0.50813
7.87 -0.527523
7.88 -0.54703
7.89 -0.566715
7.9 -0.586616
7.91 -0.606738
7.92 -0.627056
7.93 -0.647515
7.94 -0.668028
7.95 -0.688473
7.96 -0.708719
7.97 -0.728629
7.98 -0.748065
7.99 -0.766893
8 -0.784992
8.01 -0.802261
8.02 -0.818622
8.03 -0.83397
8.04 -0.848314
8.05 -0.861707
8.06 -0.8742
8.07 -0.885868
8.08 -0.896809
8.09 -0.907134
8.1 -0.916965
8.11 -0.92642
8.12 -0.935601
8.13 -0.944623
8.14 -0.953563
8.15 -0.962465
8.16 -0.971339
8.17 -0.980165
8.18 -0.98889
8.19 -0.997431
8.2 -1.00568
8.21 -1.01346
8.22 -1.02063
8.23 -1.02706
8.24 -1.03258
8.25 -1.03705
8.26 -1.04035
8.27 -1.04237
8.28 -1.04303
8.29 -1.04229
8.3 -1.04
8.31 -1.03628
8.32 -1.0312
8.33 -1.02482
8.34 -1.01721
8.35 -1.00848
8.36 -0.998705
8.37 -0.987982
8.38 -0.976385
8.39 -0.963902
8.4 -0.950636
8.41 -0.936588
8.42 -0.921731
8.43 -0.906005
8.44 -0.889325
8.45 -0.871586
8.46 -0.852661
8.47 -0.832407
8.48 -0.810556
8.49 -0.787092
8.5 -0.7619
8.51 -0.734886
8.52 -0.705988
8.53 -0.675174
8.54 -0.642452
8.55 -0.607867
8.56 -0.571482
8.57 -0.533323
8.58 -0.493689
8.59 -0.452761
8.6 -0.410741
8.61 -0.367837
8.62 -0.324262
8.63 -0.280219
8.64 -0.235898
8.65 -0.191468
8.66 -0.147088
8.67 -0.10287
8.68 -0.0588898
8.69 -0.0151939
8.7 0.028199
8.71 0.0712932
8.72 0.11411
8.73 0.156681
8.74 0.199035
8.75 0.241199
8.76 0.283198
8.77 0.325026
8.78 0.36665
8.79 0.408006
8.8 0.449
8.81 0.489506
8.82 0.529369
8.83 0.568367
8.84 0.606254
8.85 0.642857
8.86 0.677954
8.87 0.711327
8.88 0.742775
8.89 0.772114
8.9 0.799193
8.91 0.823897
8.92 0.846042
8.93 0.865592
8.94 0.882689
8.95 0.897405
8.96 0.909851
8.97 0.920176
8.98 0.92856
8.99 0.935206
9 0.940335
9.01 0.944118
9.02 0.946826
9.03 0.948726
9.04 0.950022
9.05 0.950896
9.06 0.951508
9.07 0.951992
9.08 0.952456
9.09 0.952984
9.1 0.953648
9.11 0.954489
9.12 0.955528
9.13 0.95678
9.14 0.958257
9.15 0.959969
9.16 0.961929
9.17 0.964156
9.18 0.966676
9.19 0.969547
9.2 0.972798
9.21 0.976466
9.22 0.980596
9.23 0.98523
9.24 0.990399
9.25 0.996124
9.26 1.00241
9.27 1.00923
9.28 1.01659
9.29 1.02437
9.3 1.03245
9.31 1.04073
9.32 1.04903
9.33 1.0572
9.34 1.06503
9.35 1.07234
9.36 1.07892
9.37 1.08449
9.38 1.0889
9.39 1.092
9.4 1.09365
9.41 1.09372
9.42 1.09214
9.43 1.08883
9.44 1.08379
9.45 1.077
9.46 1.06837
9.47 1.05809
9.48 1.04626
9.49 1.03295
9.5 1.01825
9.51 1.00227
9.52 0.985077
9.53 0.966749
9.54 0.947336
9.55 0.926802
9.56 0.905258
9.57 0.882708
9.58 0.859144
9.59 0.834545
9.6 0.808887
9.61 0.782143
9.62 0.754293
9.63 0.725312
9.64 0.695139
9.65 0.66389
9.66 0.631623
9.67 0.598417
9.68 0.564381
9.69 0.529647
9.7 0.494369
9.71 0.458719
9.72 0.42288
9.73 0.387064
9.74 0.35147
9.75 0.316275
9.76 0.281641
9.77 0.247706
9.78 0.214581
9.79 0.182345
9.8 0.151042
9.81 0.120711
9.82 0.0913506
9.83 0.0628422
9.84 0.0350995
9.85 0.00801678
9.86 -0.0185247
9.87 -0.0446491
9.88 -0.0704792
9.89 -0.0961287
9.9 -0.121696
9.91 -0.147266
9.92 -0.172887
9.93 -0.198579
9.94 -0.224331
9.95 -0.250106
9.96 -0.27584
9.97 -0.301449
9.98 -0.326836
9.99 -0.351872
10 -0.376433
10.01 -0.400431
10.02 -0.423775
10.03 -0.446395
10.04 -0.46824
10.05 -0.489289
10.06 -0.509548
10.07 -0.529052
10.08 -0.547832
10.09 -0.565999
10.1 -0.583689
10.11 -0.601026
10.12 -0.61814
10.13 -0.635161
10.14 -0.65221
10.15 -0.669397
10.16 -0.68681
10.17 -0.704534
10.18 -0.722595
10.19 -0.740984
10.2 -0.75967
10.21 -0.778594
10.22 -0.79767
10.23 -0.816792
10.24 -0.835835
10.25 -0.854667
10.26 -0.873115
10.27 -0.891049
10.28 -0.908353
10.29 -0.924917
10.3 -0.940652
10.31 -0.955489
10.32 -0.969385
10.33 -0.982318
10.34 -0.994293
10.35 -1.00526
10.36 -1.01533
10.37 -1.02457
10.38 -1.03304
10.39 -1.0408
10.4 -1.04791
10.41 -1.05443
10.42 -1.06039
10.43 -1.06582
10.44 -1.07068
10.45 -1.07499
10.46 -1.07872
10.47 -1.08182
10.48 -1.08424
10.49 -1.0859
10.5 -1.08672
10.51 -1.08661
10.52 -1.08551
10.53 -1.08324
10.54 -1.07984
10.55 -1.07525
10.56 -1.06945
10.57 -1.06242
10.58 -1.05417
10.59 -1.04471
10.6 -1.03407
10.61 -1.02229
10.62 -1.00932
10.63 -0.995321
10.64 -0.980332
10.65 -0.964401
10.66 -0.947567
10.67 -0.929863
10.68 -0.911311
10.69 -0.891926
10.7 -0.871701
10.71 -0.850586
10.72 -0.82864
10.73 -0.805858
10.74 -0.782237
10.75 -0.757784
10.76 -0.732513
10.77 -0.706448
10.78 -0.679632
10.79 -0.652105
10.8 -0.623921
10.81 -0.595215
10.82 -0.56609
10.83 -0.536655
10.84 -0.507027
10.85 -0.477323
10.86 -0.447657
10.87 -0.418133
10.88 -0.388853
10.89 -0.359906
10.9 -0.331326
10.91 -0.303138
10.92 -0.275341
10.93 -0.247913
10.94 -0.220809
10.95 -0.193963
10.96 -0.167295
10.97 -0.140715
10.98 -0.114116
10.99 -0.0874035
11 -0.0604935
11.01 -0.0333182
11.02 -0.00582922
11.03 0.0219986
11.04 0.0501641
11.05 0.0786384
11.06 0.107373
11.07 0.136272
11.08 0.165215
11.09 0.194073
11.1 0.222708
11.11 0.250975
11.12 0.278727
11.13 0.305825
11.14 0.332144
11.15 0.357518
11.16 0.381871
11.17 0.405176
11.18 0.427401
11.19 0.448539
11.2 0.468603
11.21 0.487629
11.22 0.505666
11.23 0.522772
11.24 0.538957
11.25 0.554314
11.26 0.568914
11.27 0.582787
11.28 0.595942
11.29 0.608363
11.3 0.620009
11.31 0.630816
11.32 0.640691
11.33 0.64944
11.34 0.65697
11.35 0.66316
11.36 0.667866
11.37 0.670944
11.38 0.672264
11.39 0.671711
11.4 0.669195
11.41 0.664655
11.42 0.6579
11.43 0.649075
11.44 0.638253
11.45 0.625515
11.46 0.61097
11.47 0.594752
11.48 0.577013
11.49 0.557917
11.5 0.537634
11.51 0.516255
11.52 0.494031
11.53 0.471101
11.54 0.447581
11.55 0.423557
11.56 0.399091
11.57 0.374213
11.58 0.348931
11.59 0.323223
11.6 0.297008
11.61 0.27027
11.62 0.242949
11.63 0.214985
11.64 0.186326
11.65 0.156932
11.66 0.126784
11.67 0.095882
11.68 0.0642471
11.69 0.0318925
11.7 -0.00103773
11.71 -0.0344351
11.72 -0.0681715
11.73 -0.102104
11.74 -0.136082
11.75 -0.169952
11.76 -0.203565
11.77 -0.236773
11.78 -0.269414
11.79 -0.301424
11.8 -0.332735
11.81 -0.363304
11.82 -0.393117
11.83 -0.422187
11.84 -0.45055
11.85 -0.478261
11.86 -0.505376
11.87 -0.531963
11.88 -0.558137
11.89 -0.58397
11.9 -0.609521
11.91 -0.634833
11.92 -0.659925
11.93 -0.684792
11.94 -0.709403
11.95 -0.733688
11.96 -0.757546
11.97 -0.780889
11.98 -0.803597
11.99 -0.825541
12 -0.846588
12.01 -0.866608
12.02 -0.885481
12.03 -0.903102
12.04 -0.919325
12.05 -0.934071
12.06 -0.947373
12.07 -0.959224
12.08 -0.969639
12.09 -0.978655
12.1 -0.986324
12.11 -0.992709
12.12 -0.997879
12.13 -1.00185
12.14 -1.00469
12.15 -1.0065
12.16 -1.0073
12.17 -1.00709
12.18 -1.00586
12.19 -1.00355
12.2 -1.00009
12.21 -0.995392
12.22 -0.98927
12.23 -0.981619
12.24 -0.972365
12.25 -0.961394
12.26 -0.948601
12.27 -0.933903
12.28 -0.917242
12.29 -0.898591
12.3 -0.877957
12.31 -0.855263
12.32 -0.830676
12.33 -0.80437
12.34 -0.776496
12.35 -0.747231
12.36 -0.71677
12.37 -0.685315
12.38 -0.653075
12.39 -0.620248
12.4 -0.587005
12.41 -0.553543
12.42 -0.520001
12.43 -0.486481
12.44 -0.453048
12.45 -0.419737
12.46 -0.38655
12.47 -0.353462
12.48 -0.320428
12.49 -0.287377
12.5 -0.254235
12.51 -0.220934
12.52 -0.187416
12.53 -0.153641
12.54 -0.119593
12.55 -0.0852841
12.56 -0.0507586
12.57 -0.016094
12.58 0.0185906
12.59 0.0531381
12.6 0.0873798
12.61 0.12113
12.62 0.154195
12.63 0.18638
12.64 0.217498
12.65 0.24738
12.66 0.275875
12.67 0.302738
12.68 0.328024
12.69 0.351709
12.7 0.373807
12.71 0.394373
12.72 0.4135
12.73 0.431311
12.74 0.447955
12.75 0.463586
12.76 0.478337
12.77 0.492452
12.78 0.506086
12.79 0.51937
12.8 0.532406
12.81 0.545264
12.82 0.557973
12.83 0.570525
12.84 0.582868
12.85 0.59489
12.86 0.606488
12.87 0.61752
12.88 0.627828
12.89 0.637251
12.9 0.64563
12.91 0.652817
12.92 0.658686
12.93 0.663095
12.94 0.665918
12.95 0.667222
12.96 0.667019
12.97 0.665357
12.98 0.662315
12.99 0.658001
13 0.652543
13.01 0.646081
13.02 0.638735
13.03 0.63065
13.04 0.621997
13.05 0.612882
13.06 0.603385
13.07 0.593552
13.08 0.583401
13.09 0.572911
13.1 0.562035
13.11 0.550668
13.12 0.538694
13.13 0.526018
13.14 0.512515
13.15 0.498063
13.16 0.482553
13.17 0.465893
13.18 0.448015
13.19 0.428886
13.2 0.408445
13.21 0.38675
13.22 0.363936
13.23 0.34012
13.24 0.315449
13.25 0.290095
13.26 0.264247
13.27 0.238099
13.28 0.211851
13.29 0.185706
